>>>>>Begin Spectral Data<<<<<,W/m^2/nm
339.619,0
340,0
340.381,0
340.762,0
341.143,0
341.524,0
341.904,0
342.285,0
342.666,0
343.046,0
343.427,0
343.807,0
344.188,0
344.568,0
344.949,0
345.329,0.552944223
345.71,-2.119151394
346.09,-0.613625498
346.47,2.491297211
346.85,0.548175299
347.23,0.166087849
347.611,0.126311713
347.991,0.149839124
348.371,0.097410956
348.751,0.109834024
349.131,0.074290837
349.511,0.055167012
349.891,0.0775
350.27,0.064906733
350.65,0.054507092
351.03,0.092786355
351.41,0.062
351.79,0.084610279
352.169,0.088146215
352.549,0.065884741
352.928,0.075458685
353.308,0.070680478
353.687,0.085256175
354.067,0.080368127
354.446,0.06489253
354.826,0.077856096
355.205,0.07898247
355.584,0.08052488
355.964,0.077043506
356.343,0.06922243
356.722,0.063157968
357.101,0.0782151
357.48,0.06513998
357.859,0.060861315
358.238,0.074489283
358.617,0.073965618
358.996,0.065999402
359.375,0.077198247
359.754,0.06066741
360.133,0.069325976
360.512,0.066480936
360.891,0.082139442
361.269,0.063223896
361.648,0.062907143
362.027,0.069011317
362.405,0.070708159
362.784,0.066857968
363.162,0.055306295
363.541,0.0475
363.919,0.055366375
364.298,0.051559422
364.676,0.056129964
365.054,0.072736273
365.433,0.05999606
365.811,0.054744279
366.189,0.068521912
366.567,0.054691956
366.945,0.04774653
367.323,0.057098707
367.701,0.040962691
368.079,0.053113805
368.457,0.043814213
368.835,0.048302072
369.213,0.058576506
369.591,0.04754604
369.969,0.050079968
370.346,0.056850783
370.724,0.047075538
371.102,0.056032444
371.479,0.051011853
371.857,0.059554317
372.235,0.055796689
372.612,0.060984223
372.99,0.046531315
373.367,0.043076271
373.744,0.045673785
374.122,0.055922271
374.499,0.034020287
374.876,0.051422375
375.254,0.0454695
375.631,0.038829363
376.008,0.035515124
376.385,0.046159661
376.762,0.042880127
377.139,0.039781942
377.516,0.04208797
377.893,0.03887909
378.27,0.041458249
378.647,0.046363681
379.024,0.043042554
379.4,0.038124446
379.777,0.034841482
380.154,0.040383112
380.53,0.03802255
380.907,0.039523896
381.284,0.039594582
381.66,0.039032916
382.037,0.038231689
382.413,0.04323251
382.79,0.041355859
383.166,0.038593936
383.542,0.036412175
383.919,0.037542255
384.295,0.026898299
384.671,0.039259506
385.047,0.038728972
385.423,0.037979703
385.799,0.044408096
386.176,0.038381689
386.552,0.037287952
386.928,0.029136873
387.303,0.048091452
387.679,0.03626455
388.055,0.027960705
388.431,0.032559705
388.807,0.029030378
389.183,0.035666534
389.558,0.039586653
389.934,0.024211904
390.309,0.034293179
390.685,0.036104223
391.061,0.024871781
391.436,0.02345
391.811,0.025668831
392.187,0.029985867
392.562,0.029817687
392.938,0.02178455
393.313,0.027654341
393.688,0.027908319
394.063,0.025597259
394.438,0.024722944
394.814,0.02537802
395.189,0.03033588
395.564,0.029113046
395.939,0.023041135
396.314,0.027389343
396.689,0.027489896
397.063,0.027372719
397.438,0.029163257
397.813,0.023079169
398.188,0.025117813
398.563,0.02632746
398.937,0.026394906
399.312,0.026855402
399.686,0.026460376
400.061,0.028487518
400.435,0.02476549
400.81,0.022701641
401.184,0.019065649
401.559,0.02757799
401.933,0.032490837
402.307,0.02759988
402.682,0.027195892
403.056,0.024126992
403.43,0.020494195
403.804,0.025269084
404.178,0.025064199
404.552,0.025107928
404.926,0.026512534
405.3,0.028858088
405.674,0.020851076
406.048,0.024526135
406.422,0.025083857
406.796,0.021936944
407.169,0.016149325
407.543,0.02315353
407.917,0.020820442
408.291,0.023655042
408.664,0.025681145
409.038,0.023471151
409.411,0.023494622
409.785,0.019274104
410.158,0.016775723
410.531,0.027829524
410.905,0.019946066
411.278,0.017962637
411.651,0.024219916
412.025,0.022135966
412.398,0.02128945
412.771,0.025555016
413.144,0.025245133
413.517,0.019302359
413.89,0.024007713
414.263,0.021631454
414.636,0.021255753
415.009,0.020121235
415.382,0.021725448
415.755,0.023850598
416.127,0.026707076
416.5,0.022542311
416.873,0.022008516
417.245,0.022704104
417.618,0.021866982
417.991,0.020950446
418.363,0.021269841
418.736,0.018477645
419.108,0.021583914
419.48,0.018958215
419.853,0.021742363
420.225,0.023163761
420.597,0.020854143
420.97,0.020192032
421.342,0.020124725
421.714,0.019549345
422.086,0.026362279
422.458,0.017375618
422.83,0.020805478
423.202,0.025080683
423.574,0.018931721
423.946,0.021669701
424.318,0.017736655
424.69,0.019884183
425.061,0.018542713
425.433,0.020238112
425.805,0.017864869
426.177,0.01821854
426.548,0.016157546
426.92,0.019810546
427.291,0.020623578
427.663,0.016741584
428.034,0.014324886
428.406,0.017301892
428.777,0.016971275
429.148,0.019701303
429.519,0.018833139
429.891,0.017903602
430.262,0.018491404
430.633,0.018552048
431.004,0.021212365
431.375,0.01911539
431.746,0.018072731
432.117,0.018002952
432.488,0.017805697
432.859,0.015458422
433.23,0.014709737
433.601,0.019154922
433.971,0.0215711
434.342,0.016455677
434.713,0.015343127
435.083,0.017374942
435.454,0.019757498
435.825,0.018945195
436.195,0.017408665
436.566,0.015462717
436.936,0.020003127
437.306,0.016853267
437.677,0.020524677
438.047,0.016181283
438.417,0.014974892
438.788,0.014552892
439.158,0.0151541
439.528,0.013894753
439.898,0.015569952
440.268,0.017125598
440.638,0.013956876
441.008,0.015505614
441.378,0.017695936
441.748,0.018052112
442.118,0.016865498
442.487,0.016677153
442.857,0.015613556
443.227,0.018094966
443.597,0.014786102
443.966,0.015849699
444.336,0.015967771
444.705,0.018725195
445.075,0.016371745
445.444,0.01613659
445.814,0.018843247
446.183,0.020872996
446.552,0.015717066
446.922,0.018529434
447.291,0.015534159
447.66,0.016467817
448.029,0.016978984
448.398,0.016281474
448.768,0.016675064
449.137,0.015797586
449.506,0.017410484
449.875,0.016532542
450.243,0.013834231
450.612,0.013834231
450.981,0.019233406
451.35,0.01337506
451.719,0.018243819
452.087,0.016962145
452.456,0.015546279
452.825,0.016440375
453.193,0.016033715
453.562,0.018066805
453.93,0.01706996
454.299,0.01500941
454.667,0.015600586
455.035,0.017466359
455.404,0.019027131
455.772,0.016765139
456.14,0.014045817
456.508,0.015172948
456.877,0.014672876
457.245,0.013961486
457.613,0.014819976
457.981,0.013363171
458.349,0.015499506
458.717,0.013514163
459.085,0.015673155
459.452,0.014968129
459.82,0.014020237
460.188,0.01500259
460.556,0.015526677
460.923,0.017435661
461.291,0.01524496
461.659,0.014653566
462.026,0.014964801
462.394,0.014997207
462.761,0.01448012
463.128,0.013588367
463.496,0.012251283
463.863,0.012396908
464.23,0.017514592
464.598,0.014577988
464.965,0.014507221
465.332,0.013189422
465.699,0.016050167
466.066,0.017361538
466.433,0.012659598
466.8,0.012796821
467.167,0.01631143
467.534,0.015636653
467.901,0.01605042
468.268,0.015871948
468.635,0.012382745
469.001,0.01697157
469.368,0.016209861
469.735,0.015359622
470.101,0.012799129
470.468,0.014631394
470.834,0.013988657
471.201,0.015136793
471.567,0.012627233
471.934,0.012955896
472.3,0.014250369
472.666,0.01327504
473.032,0.017024032
473.399,0.011593159
473.765,0.013059769
474.131,0.014429044
474.497,0.01461453
474.863,0.012438305
475.229,0.016806247
475.595,0.015672261
475.961,0.011130586
476.327,0.011151562
476.693,0.012114363
477.058,0.014466333
477.424,0.014879378
477.79,0.013635147
478.156,0.014368805
478.521,0.013876295
478.887,0.01492002
479.252,0.013861394
479.618,0.014566375
479.983,0.015811631
480.348,0.014227869
480.714,0.013507984
481.079,0.01242501
481.444,0.01363943
481.81,0.016919235
482.175,0.012850942
482.54,0.014249104
482.905,0.012156637
483.27,0.015563259
483.635,0.014807657
484,0.013559233
484.365,0.014177689
484.73,0.013489151
485.095,0.013812663
485.459,0.013922191
485.824,0.017259259
486.189,0.014474056
486.553,0.017959281
486.918,0.01574349
487.283,0.014626524
487.647,0.015246904
488.012,0.016505757
488.376,0.018750086
488.74,0.017630151
489.105,0.018014849
489.469,0.01529438
489.833,0.0171701
490.198,0.016782849
490.562,0.01671912
490.926,0.019374151
491.29,0.0202904
491.654,0.018846092
492.018,0.019569908
492.382,0.021438825
492.746,0.017807769
493.11,0.020897908
493.474,0.022999283
493.837,0.021711857
494.201,0.021354221
494.565,0.02244897
494.928,0.023171251
495.292,0.024980837
495.656,0.02546349
496.019,0.026451275
496.383,0.028186251
496.746,0.026630847
497.109,0.029080637
497.473,0.028724701
497.836,0.028962072
498.199,0.032015741
498.563,0.031250775
498.926,0.031780349
499.289,0.035604705
499.652,0.035422331
500.015,0.034138669
500.378,0.034430378
500.741,0.035072092
501.104,0.036705757
501.467,0.039798203
501.829,0.040907116
502.192,0.043278813
502.555,0.043221012
502.918,0.04437796
503.28,0.048369711
503.643,0.048485313
504.005,0.050394371
504.368,0.050479873
504.73,0.054035896
505.093,0.055814024
505.455,0.056788932
505.817,0.056674319
506.18,0.061893625
506.542,0.060230343
506.904,0.063293297
507.266,0.064828616
507.628,0.06716
507.991,0.067330438
508.353,0.070401076
508.715,0.072959711
509.076,0.073983257
509.438,0.076045494
509.8,0.076834637
510.162,0.079145522
510.524,0.080498534
510.885,0.080554853
511.247,0.082358414
511.609,0.084105884
511.97,0.087670217
512.332,0.085435428
512.693,0.087670217
513.055,0.086887996
513.416,0.085770602
513.778,0.089346534
514.139,0.092475193
514.5,0.093539633
514.861,0.095920861
515.223,0.090937084
515.584,0.093373641
515.945,0.09414894
516.306,0.092543012
516.667,0.092155649
517.028,0.093088757
517.389,0.093637566
517.75,0.095558396
518.11,0.092210707
518.471,0.091552004
518.832,0.092413367
519.193,0.089857072
519.553,0.090346594
519.914,0.087735737
520.274,0.089476235
520.635,0.087028845
520.995,0.087409462
521.356,0.084363645
521.716,0.083812315
522.076,0.084135841
522.437,0.078854118
522.797,0.082249402
523.157,0.078692355
523.517,0.077075594
523.877,0.077169442
524.238,0.070494526
524.598,0.074552916
524.958,0.075247171
525.317,0.068358406
525.677,0.068305052
526.037,0.069683004
526.397,0.067037845
526.757,0.065344815
527.116,0.063334408
527.476,0.063704645
527.836,0.063651785
528.195,0.064551267
528.555,0.05904908
528.914,0.061958755
529.274,0.059842627
529.633,0.059859805
529.993,0.057606143
530.352,0.054776028
530.711,0.055352482
531.07,0.054094629
531.429,0.051369247
531.789,0.052941721
532.148,0.054356673
532.507,0.051107203
532.866,0.051421614
533.225,0.051631291
533.584,0.049377629
533.942,0.047857733
534.301,0.047490956
534.66,0.046180526
535.019,0.046390203
535.377,0.044346219
535.736,0.045761382
536.095,0.044660629
536.453,0.042406968
536.812,0.041358793
537.17,0.041201482
537.528,0.043140733
537.887,0.041149116
538.245,0.03978653
538.603,0.040415351
538.962,0.039943629
539.32,0.039209865
539.678,0.036641793
540.036,0.036484482
540.394,0.037008781
540.752,0.036799104
541.11,0.036117705
541.468,0.032291781
541.826,0.032763502
542.184,0.033654367
542.541,0.031558016
542.899,0.032972968
543.257,0.031715116
543.614,0.03213447
543.972,0.030404896
544.33,0.029251777
544.687,0.028989733
545.045,0.028255968
545.402,0.029723498
545.759,0.029828442
546.117,0.028727689
546.474,0.026893382
546.831,0.025059076
547.188,0.025687896
547.546,0.025845207
547.903,0.025740263
548.26,0.024272733
548.617,0.025583163
548.974,0.024115633
549.331,0.02301488
549.687,0.022124016
550.044,0.022333693
550.401,0.021337884
550.758,0.020409741
551.114,0.020461614
551.471,0.019838516
551.828,0.019319373
552.184,0.020046215
552.541,0.018956056
552.897,0.019631026
553.254,0.019527072
553.61,0.019163755
553.966,0.017138845
554.323,0.016775528
554.679,0.017761942
555.035,0.016567829
555.391,0.016671783
555.747,0.015166016
556.103,0.016204512
556.459,0.015789114
556.815,0.014646873
557.171,0.016671783
557.527,0.015114143
557.883,0.015737241
558.239,0.014179602
558.594,0.016723655
558.95,0.015633287
559.306,0.016204512
559.661,0.016619701
560.017,0.014802699
560.372,0.015062271
560.728,0.013868157
561.083,0.01303757
561.438,0.014387301
561.794,0.013972112
562.149,0.0123626
562.504,0.014854572
562.859,0.013089442
563.215,0.01303757
563.57,0.014075857
563.925,0.011116614
564.28,0.01059747
564.635,0.013660458
564.99,0.011843456
565.344,0.013400886
565.699,0.011635757
566.054,0.012604924
566.409,0.010290821
566.763,0.010445163
567.118,0.011113498
567.473,0.011885004
567.827,0.011370805
568.182,0.013941801
568.536,0.011627904
568.891,0.011885004
569.245,0.01080502
569.599,0.010033721
569.953,0.010907984
570.308,0.010188064
570.662,0.010907984
571.016,0.01152494
571.37,0.009879378
571.724,0.012296239
572.078,0.011627904
572.432,0.010959363
572.786,0.009211044
573.14,0.009622279
573.494,0.011833418
573.847,0.010907984
574.201,0.010445163
574.555,0.009982343
574.908,0.011319219
575.262,0.011216462
575.615,0.010856398
575.969,0.010188064
576.322,0.0100851
576.676,0.009714801
577.029,0.010389771
577.382,0.011220359
577.736,0.007586355
578.089,0.010233944
578.442,0.009455229
578.795,0.00836507
579.148,0.008676514
579.501,0.010908914
579.854,0.0099225
580.207,0.009766882
580.56,0.010121944
580.913,0.009021191
581.265,0.009126135
581.618,0.010174311
581.971,0.010541088
582.324,0.009492912
582.676,0.008025382
583.029,0.010376016
583.381,0.008259888
583.734,0.010323155
584.086,0.011169564
584.438,0.010217434
584.791,0.008841781
585.143,0.009031339
585.495,0.010900255
585.847,0.007909817
586.2,0.008710781
586.552,0.008016741
586.904,0.009007048
587.256,0.00976158
587.608,0.010084888
587.959,0.008737588
588.311,0.009905478
588.663,0.008817749
589.015,0.009524861
589.367,0.009252928
589.718,0.009227151
590.07,0.009556614
590.421,0.008458775
590.773,0.009007805
591.124,0.009531825
591.476,0.007261482
591.827,0.009199618
592.179,0.008202773
592.53,0.008701195
592.881,0.009114058
593.232,0.008499536
593.584,0.009728805
593.935,0.010231677
594.286,0.009645717
594.637,0.010265677
594.988,0.008292932
595.339,0.008349251
595.689,0.00819501
596.04,0.008308865
596.391,0.007512799
596.742,0.009559661
597.092,0.010071434
597.443,0.010185289
597.794,0.009642789
598.144,0.010159012
598.495,0.010159012
598.845,0.00866788
599.196,0.008266271
599.546,0.007750048
599.896,0.008395566
600.247,0.007816859
600.597,0.006486508
600.947,0.008858205
601.297,0.009378878
601.647,0.010478026
601.997,0.008916006
602.347,0.010478026
602.697,0.009167331
603.047,0.009225625
603.397,0.00928392
603.747,0.008175378
604.096,0.007533665
604.446,0.007533665
604.796,0.009692454
605.145,0.010625876
605.495,0.008000494
605.844,0.008933916
606.194,0.010917586
606.543,0.00945904
606.893,0.009109036
607.242,0.011151
607.591,0.008185873
607.94,0.007825375
608.29,0.006950359
608.639,0.009480412
608.988,0.008244661
609.337,0.009892171
609.686,0.010951319
610.035,0.009303809
610.384,0.01089253
610.733,0.009715805
611.081,0.0112455
611.43,0.009186231
611.779,0.010480534
612.127,0.010304167
612.476,0.010068775
612.825,0.011186711
613.173,0.010421745
613.522,0.009068416
613.87,0.009421624
614.218,0.007656299
614.567,0.010127564
614.915,0.009009627
615.263,0.009421624
615.611,0.008729402
615.96,0.009500797
616.308,0.008254661
616.656,0.007305418
617.004,0.008492032
617.352,0.00867012
617.7,0.007542789
618.047,0.008313944
618.395,0.007483506
618.743,0.008788685
619.091,0.008383227
619.438,0.008742371
619.786,0.007246502
620.134,0.007545869
620.481,0.008443245
620.829,0.009998649
621.176,0.009101273
621.523,0.011195151
621.871,0.009460175
622.218,0.008392239
622.565,0.007728773
622.912,0.007427175
623.259,0.007608231
623.607,0.008693837
623.954,0.008090641
624.301,0.010925805
624.648,0.009538359
624.994,0.009008402
625.341,0.009555777
625.688,0.007427289
626.035,0.007609584
626.382,0.010346456
626.728,0.009633466
627.075,0.009878749
627.421,0.007855474
627.768,0.008529817
628.114,0.010430574
628.461,0.008104333
628.807,0.009834661
629.154,0.011318227
629.5,0.009477359
629.846,0.010848048
630.192,0.010598809
630.538,0.007732936
630.884,0.01147102
631.231,0.009615317
631.577,0.009301359
631.922,0.010682926
632.268,0.009058167
632.614,0.011083474
632.96,0.013235251
633.306,0.008678502
633.651,0.009447837
633.997,0.009575552
634.343,0.010085641
634.688,0.008299801
635.034,0.007914203
635.379,0.00894255
635.725,0.008364024
636.07,0.011019396
636.415,0.011472677
636.761,0.008817187
637.106,0.010059084
637.451,0.010711984
637.796,0.011845213
638.141,0.009280592
638.486,0.00862301
638.831,0.011536813
639.176,0.01120555
639.521,0.007892653
639.866,0.009820578
640.211,0.008418944
640.555,0.008685717
640.9,0.008817514
641.245,0.009019076
641.589,0.007943267
641.934,0.009898386
642.278,0.010846743
642.623,0.010575745
642.967,0.010379964
643.312,0.010243614
643.656,0.011198892
644,0.008737064
644.344,0.010111558
644.689,0.009492112
645.033,0.011361195
645.377,0.011983944
645.721,0.008514209
646.065,0.00990848
646.409,0.010814869
646.753,0.009908602
647.096,0.009908602
647.44,0.008714896
647.784,0.010049026
648.128,0.009624869
648.471,0.010543829
648.815,0.010902406
649.158,0.010048159
649.502,0.011116112
649.845,0.009974382
650.189,0.010834851
650.532,0.010548028
650.875,0.009754371
651.218,0.009898916
651.562,0.008816131
651.905,0.011347697
652.248,0.011929255
652.591,0.008644143
652.934,0.012815267
653.277,0.010985904
653.62,0.010249538
653.963,0.011428478
654.305,0.00870255
654.648,0.012617629
654.991,0.011134363
655.334,0.012024203
655.676,0.012850942
656.019,0.012552251
656.361,0.011506982
656.704,0.010530996
657.046,0.00992996
657.389,0.011057243
657.731,0.009314408
658.073,0.01014646
658.415,0.011886454
658.757,0.009314408
659.1,0.009755992
659.442,0.008994582
659.784,0.011583438
660.126,0.010136697
660.468,0.013038217
660.809,0.009742769
661.151,0.011658655
661.493,0.010885506
661.835,0.010885506
662.177,0.011116709
662.518,0.01149853
662.86,0.010644725
663.201,0.010489289
663.543,0.011110408
663.884,0.009150151
664.226,0.010712526
664.567,0.011025064
664.908,0.010009394
665.249,0.012431139
665.591,0.011880974
665.932,0.009994195
666.273,0.010531633
666.614,0.011955697
666.955,0.011560159
667.296,0.012825817
667.637,0.01242843
667.978,0.012189496
668.318,0.011313938
668.659,0.011864725
669,0.012665689
669.341,0.010823343
669.681,0.011304179
670.022,0.011937964
670.362,0.013308203
670.703,0.011454484
671.043,0.011200351
671.383,0.013065442
671.724,0.012903076
672.064,0.012903076
672.404,0.011431673
672.744,0.013879392
673.085,0.011350159
673.425,0.010352183
673.765,0.011993665
674.105,0.011911657
674.444,0.012814406
674.784,0.013717287
675.124,0.012396257
675.464,0.012065916
675.804,0.012055171
676.143,0.012387155
676.483,0.011805849
676.823,0.010975219
677.162,0.013714586
677.501,0.009954167
677.841,0.010622761
678.18,0.011541825
678.52,0.013039203
678.859,0.013543446
679.198,0.010433327
679.537,0.013876888
679.876,0.010156446
680.215,0.013876888
680.555,0.013022319
680.894,0.011151562
681.232,0.012001968
681.571,0.013269307
681.91,0.012927098
682.249,0.010764777
682.588,0.011194924
682.926,0.012730378
683.265,0.00987495
683.604,0.010975809
683.942,0.01402145
684.281,0.011497849
684.619,0.013663554
684.957,0.012963311
685.296,0.01497292
685.634,0.012596514
685.972,0.010012233
686.31,0.011959125
686.649,0.013021359
686.987,0.011937012
687.325,0.014962948
687.663,0.014696175
688.001,0.016836245
688.338,0.014509205
688.676,0.011889821
689.014,0.012159558
689.352,0.012045556
689.69,0.012407546
690.027,0.012748048
690.365,0.014294821
690.702,0.01373238
691.04,0.012543147
691.377,0.014266422
691.715,0.014343124
692.052,0.014712653
692.389,0.012653673
692.726,0.014047944
693.064,0.013655438
693.401,0.014216038
693.738,0.013539582
694.075,0.012506315
694.412,0.011911247
694.749,0.014555189
695.086,0.014726629
695.423,0.015566488
695.759,0.014039789
696.096,0.011906267
696.433,0.013632944
696.769,0.015245737
697.106,0.014742558
697.443,0.01532392
697.779,0.01257739
698.116,0.015088625
698.452,0.01457457
698.788,0.014869898
699.125,0.01267012
699.461,0.014224153
699.797,0.016510028
700.133,0.015693227
700.469,0.012057068
700.805,0.012157355
701.141,0.015545857
701.477,0.016352916
701.813,0.017750876
702.149,0.01335594
702.485,0.016615008
702.82,0.01720739
703.156,0.012765482
703.492,0.015850677
703.827,0.013653695
704.163,0.013240275
704.498,0.013407371
704.834,0.015975054
705.169,0.01524496
705.505,0.01416388
705.84,0.015494689
706.175,0.015567434
706.51,0.016915618
706.845,0.015533964
707.18,0.013683729
707.515,0.012030532
707.85,0.013103428
708.185,0.01273259
708.52,0.017122135
708.855,0.013332388
709.19,0.013828446
709.525,0.013937131
709.859,0.015748671
710.194,0.014722315
710.529,0.015670859
710.863,0.017655647
711.198,0.016959299
711.532,0.015700249
711.866,0.016775773
712.201,0.015657928
712.535,0.017411171
712.869,0.015232853
713.203,0.014847137
713.537,0.015865777
713.872,0.014684263
714.206,0.015480558
714.54,0.015319165
714.873,0.017221147
715.207,0.016647618
715.541,0.014645582
715.875,0.014245566
716.209,0.015749785
716.542,0.017676026
716.876,0.017634653
717.21,0.017051235
717.543,0.01782646
717.877,0.0177841
718.21,0.019513255
718.543,0.017740751
718.877,0.016390757
719.21,0.01888255
719.543,0.01765061
719.876,0.020954693
720.209,0.015809542
720.542,0.016595641
720.875,0.015634291
721.208,0.018232438
721.541,0.015762968
721.874,0.019275936
722.207,0.017773745
722.54,0.016624773
722.872,0.018090044
723.205,0.01669208
723.538,0.019714153
723.87,0.016084661
724.203,0.016950199
724.535,0.0162735
724.868,0.013596956
725.2,0.020076167
725.532,0.014776813
725.865,0.019482104
726.197,0.018100283
726.529,0.017036743
726.861,0.015584892
727.193,0.019255586
727.525,0.023142799
727.857,0.019712207
728.189,0.020426713
728.521,0.022810574
728.853,0.019609189
729.184,0.018527849
729.516,0.019042151
729.848,0.020534773
730.179,0.017374984
730.511,0.015950163
730.842,0.021992982
731.174,0.019204685
731.505,0.021423968
731.836,0.021242759
732.168,0.022291145
732.499,0.019612996
732.83,0.019026675
733.161,0.024703351
733.492,0.01697796
733.823,0.011721327
734.154,0.018238414
734.485,0.025248227
734.816,0.016036494
735.147,0.018910078
735.478,0.018441817
735.808,0.018509618
736.139,0.019319373
736.47,0.018035422
736.8,0.019460906
737.131,0.019460906
737.461,0.020623578
737.792,0.018303418
738.122,0.01905451
738.452,0.018161375
738.782,0.019535869
739.113,0.021261245
739.443,0.016571044
739.773,0.017738167
740.103,0.017662697
740.433,0.017801518
740.763,0.019537769
741.093,0.017446363
741.423,0.020027042
741.752,0.019607052
742.082,0.018131873
742.412,0.020450737
742.742,0.022141434
743.071,0.020946367
743.401,0.018039837
743.73,0.022944191
744.06,0.021520255
744.389,0.020737765
744.718,0.019948765
745.048,0.022463809
745.377,0.018065028
745.706,0.023407116
746.035,0.023342528
746.364,0.02385851
746.693,0.019351876
747.022,0.019709173
747.351,0.018751777
747.68,0.024836181
748.009,0.015437492
748.338,0.016373378
748.666,0.021530797
748.995,0.018498094
749.323,0.02211992
749.652,0.025976892
749.981,0.020259339
750.309,0.024507721
750.637,0.018446181
750.966,0.02294048
751.294,0.020761625
751.622,0.022790548
751.95,0.020444092
752.279,0.022108805
752.607,0.02202939
752.935,0.024385378
753.263,0.022019635
753.591,0.023317311
753.919,0.015089076
754.246,0.02146212
754.574,0.023697592
754.902,0.02128945
755.23,0.022291584
755.557,0.020956088
755.885,0.022903566
756.212,0.018984637
756.54,0.025019378
756.867,0.016423416
757.195,0.021538167
757.522,0.024779665
757.849,0.021764056
758.176,0.021035837
758.503,0.02669061
758.831,0.023249259
759.158,0.024927888
759.485,0.027261263
759.812,0.023787622
760.138,0.021103076
760.465,0.018076649
760.792,0.02677996
761.119,0.028574582
761.446,0.022017155
761.772,0.022413155
762.099,0.02281047
762.425,0.023966829
762.752,0.026191394
763.078,0.02368197
763.405,0.022582036
763.731,0.026169179
764.057,0.024060757
764.383,0.027672625
764.71,0.017945462
765.036,0.025799476
765.362,0.030126725
765.688,0.02151508
766.014,0.022090239
766.34,0.026443197
766.665,0.023250143
766.991,0.022627297
767.317,0.024941335
767.643,0.026998821
767.968,0.026202867
768.294,0.026626865
768.619,0.024664701
768.945,0.024911062
769.27,0.026927733
769.596,0.027433865
769.921,0.026975042
770.246,0.030987056
770.572,0.025039139
770.897,0.027273934
771.222,0.02970141
771.547,0.028043506
771.872,0.027572827
772.197,0.030391594
772.522,0.024302271
772.847,0.028978088
773.171,0.023756474
773.496,0.027910135
773.821,0.023883175
774.146,0.023072946
774.47,0.027715853
774.795,0.024388645
775.119,0.023567044
775.444,0.028387231
775.768,0.028726655
776.092,0.023489556
776.417,0.027213765
776.741,0.030841498
777.065,0.030220271
777.389,0.026586175
777.713,0.0290759
778.037,0.031787265
778.361,0.026922709
778.685,0.024671749
779.009,0.024135044
779.333,0.024655787
779.657,0.024716665
779.98,0.034521514
780.304,0.026582211
780.627,0.029155976
780.951,0.025346847
781.274,0.026700538
781.598,0.030467442
781.921,0.02730739
782.245,0.02861553
782.568,0.029792878
782.891,0.031324673
783.214,0.030843888
783.537,0.033858616
783.861,0.026144689
784.184,0.030428428
784.506,0.031273072
784.829,0.031770048
785.152,0.031207614
785.475,0.026540743
785.798,0.030855498
786.12,0.02660261
786.443,0.032844432
786.766,0.029435068
787.088,0.031353104
787.411,0.032707219
787.733,0.025018135
788.056,0.03121243
788.378,0.026574297
788.7,0.027858633
789.022,0.03278293
789.345,0.036292602
789.667,0.027922972
789.989,0.026482141
790.311,0.02755751
790.633,0.031716829
790.955,0.031716829
791.276,0.028914096
791.598,0.027684211
791.92,0.030129514
792.242,0.031645936
792.563,0.029547673
792.885,0.028244665
793.206,0.03113745
793.528,0.032735026
793.849,0.035351157
794.171,0.033027614
794.492,0.024066988
794.813,0.02762661
795.134,0.0298169
795.456,0.029884207
795.777,0.030391195
796.098,0.031341717
796.419,0.034429068
796.74,0.031191161
797.061,0.033475952
797.381,0.031996169
797.702,0.030288048
798.023,0.031470277
798.344,0.031986653
798.664,0.033700004
798.985,0.031749392
799.305,0.028211139
799.626,0.033696012
799.946,0.031731554
800.267,0.030893809
800.587,0.03528255
800.907,0.031323968
801.227,0.028644205
801.548,0.032377402
801.868,0.027908016
802.188,0.031893681
802.508,0.034117414
802.828,0.036591633
803.147,0.028734645
803.467,0.0237
803.787,0.029622211
804.107,0.027387592
804.426,0.034299833
804.746,0.034205259
805.066,0.039746697
805.385,0.029165695
805.705,0.030422582
806.024,0.028145402
806.343,0.028684494
806.663,0.037264333
806.982,0.031105143
807.301,0.038057243
807.62,0.031114004
807.939,0.035416695
808.258,0.031548598
808.577,0.039338645
808.896,0.037014
809.215,0.031368363
809.534,0.038810805
809.852,0.039466135
810.171,0.037351912
810.49,0.038258231
810.808,0.034086801
811.127,0.034219434
811.445,0.033071514
811.764,0.03782741
812.082,0.039779104
812.401,0.038970269
812.719,0.038076275
813.037,0.037506474
813.355,0.034820189
813.673,0.036009124
813.991,0.041531028
814.309,0.035811036
814.627,0.040767685
814.945,0.044496753
815.263,0.045742058
815.581,0.043737365
815.899,0.036061434
816.216,0.04577894
816.534,0.034397793
816.851,0.045558143
817.169,0.035199681
817.486,0.034768992
817.804,0.032999602
818.121,0.042368002
818.438,0.042592171
818.756,0.044155665
819.073,0.037782235
819.39,0.038264755
819.707,0.037825309
820.024,0.041402616
820.341,0.042410347
820.658,0.033299552
820.975,0.047134876
821.292,0.037148235
821.608,0.037923705
821.925,0.040114837
822.242,0.043278347
822.558,0.040518677
822.875,0.044236382
823.191,0.041754829
823.508,0.040151853
823.824,0.041326359
824.141,0.04541957
824.457,0.041968693
824.773,0.048551809
825.089,0.041007548
825.405,0.038109932
825.721,0.042023966
826.037,0.039662498
826.353,0.041353058
826.669,0.0318
826.985,0.04546449
827.301,0.046946227
827.617,0.046529641
827.932,0.056023498
828.248,0.042784761
828.563,0.044850327
828.879,0.037341036
829.194,0.050871649
829.51,0.04324759
829.825,0.04903249
830.14,0.047602319
830.456,0.051797992
830.771,0.05236255
831.086,0.045164072
831.401,0.039322486
831.716,0.052310215
832.031,0.05178643
832.346,0.041762641
832.661,0.039559855
832.976,0.053000526
833.29,0.054181004
833.605,0.047877036
833.92,0.056032787
834.234,0.044818924
834.549,0.039725514
834.863,0.037097783
835.178,0.050595279
835.492,0.052219438
835.806,0.05845812
836.121,0.046905996
836.435,0.047814365
836.749,0.049803124
837.063,0.052095562
837.377,0.053751406
837.691,0.039441964
838.005,0.041418363
838.319,0.056892876
838.633,0.050903745
838.946,0.055519269
839.26,0.051316478
839.574,0.048189645
839.887,0.042805578
840.201,0.050816614
840.514,0.057687321
840.828,0.05716502
841.141,0.059653833
841.455,0.042467223
841.768,0.058221878
842.081,0.056540542
842.394,0.057910408
842.707,0.056211275
843.02,0.049862649
843.333,0.060133737
843.646,0.052646876
843.959,0.05167499
844.272,0.060583118
844.585,0.056472012
844.898,0.056218327
845.21,0.058810952
845.523,0.057108914
845.835,0.054518486
846.148,0.057131875
846.46,0.056534821
846.773,0.06362749
847.085,0.064266645
847.397,0.04934808
847.71,0.063021683
848.022,0.068585777
848.334,0.068916311
848.646,0.06130108
848.958,0.066010247
849.27,0.050843717
849.582,0.064393376
849.894,0.05714345
850.205,0.054331773
850.517,0.05410141
850.829,0.057681904
851.141,0.066465084
851.452,0.058579888
851.764,0.056276486
852.075,0.06852792
852.386,0.062715594
852.698,0.055188072
853.009,0.076285474
853.32,0.069114008
853.632,0.063279729
853.943,0.058648034
854.254,0.074399104
854.565,0.054285631
854.876,0.066061618
855.187,0.056885199
855.497,0.064256375
855.808,0.063638343
856.119,0.065275036
856.43,0.061399086
856.74,0.062967825
857.051,0.065072713
857.361,0.078688745
857.672,0.072484064
857.982,0.068624984
858.293,0.068844701
858.603,0.072013894
858.913,0.06474349
859.223,0.056953912
859.533,0.068527908
859.844,0.065020964
860.154,0.077195384
860.464,0.07751603
860.773,0.076395649
861.083,0.067069124
861.393,0.06921006
861.703,0.07393844
862.013,0.08506247
862.322,0.07853992
862.632,0.080826789
862.941,0.068294821
863.251,0.063844622
863.56,0.0669799
863.869,0.069476733
864.179,0.061086215
864.488,0.075713665
864.797,0.06881508
865.106,0.078491335
865.415,0.076455956
865.724,0.069483187
866.033,0.061770199
866.342,0.08209243
866.651,0.071709562
866.96,0.076586056
867.269,0.070295737
867.577,0.070819402
867.886,0.067785139
868.195,0.067785139
868.503,0.063078884
868.812,0.07055498
869.12,0.085219761
869.428,0.071746753
869.737,0.059351793
870.045,0.065333865
870.353,0.076355618
870.661,0.088674104
870.969,0.078152351
871.277,0.069909183
871.585,0.085553606
871.893,0.077856096
872.201,0.075696116
872.509,0.077970916
872.817,0.079107171
873.124,0.067178327
873.432,0.076434562
873.739,0.09205243
874.047,0.075336653
874.354,0.079421992
874.662,0.088920498
874.969,0.081858725
875.276,0.078394422
875.584,0.078987251
875.891,0.07844994
876.198,0.088146215
876.505,0.082114263
876.812,0.077313586
877.119,0.07244749
877.426,0.066293068
877.733,0.076715637
878.04,0.084181554
878.346,0.082314143
878.653,0.106829263
878.96,0.117163347
879.266,0.087463028
879.573,0.104685299
879.879,0.093284064
880.185,0.088171873
880.492,0.089497052
880.798,0.094719203
881.104,0.084913347
881.411,0.104103586
881.717,0.108884761
882.023,0.081448287
882.329,0.093552829
882.635,0.109144243
882.941,0.097658367
883.246,0.096303187
883.552,0.092151793
883.858,0.103267052
884.164,0.109541833
884.469,0.102596414
884.775,0.088469143
885.08,0.094784701
885.386,0.107601275
885.691,0.091142032
885.996,0.086715857
886.302,0.100431713
886.607,0.10257496
886.912,0.110569183
887.217,0.102538645
887.522,0.0886349
887.827,0.09144504
888.132,0.098075837
888.437,0.100216135
888.742,0.089832669
889.046,0.071021135
889.351,0.118802709
889.656,0.098548685
889.96,0.122646873
890.265,0.118864542
890.569,0.083853307
890.874,0.112788127
891.178,0.11505508
891.483,0.098193426
891.787,0.102683426
892.091,0.104998566
892.395,0.12582239
892.699,0.117338725
893.003,0.102683426
893.307,0.104224781
893.611,0.125077709
893.915,0.097909203
894.219,0.084711195
894.523,0.110250637
894.826,0.106344701
895.13,0.089937251
895.433,0.097582291
895.737,0.112519422
896.04,0.114811155
896.344,0.103735458
896.647,0.121099582
896.95,0.123488924
897.254,0.10583247
897.557,0.095418645
897.86,0.11063761
898.163,0.127457211
898.466,0.100037191
898.769,0.096007649
899.072,0.108759442
899.375,0.116867968
899.677,0.120112032
899.98,0.111871315
900.283,0.137160359
900.585,0.102898207
900.888,0.104341912
901.191,0.109265697
901.493,0.111573964
901.795,0.111573964
902.098,0.109752191
902.4,0.091476335
902.702,0.10622761
903.004,0.122104183
903.306,0.119463944
903.608,0.120303785
903.91,0.095928088
904.212,0.150602629
904.514,0.122568845
904.816,0.117467092
905.118,0.107263586
905.42,0.133547729
905.721,0.117113785
906.023,0.124857131
906.324,0.116054283
906.626,0.136820717
906.927,0.126292271
907.228,0.107146135
907.53,0.11825504
907.831,0.126844502
908.132,0.138179442
908.433,0.110741096
908.734,0.124709163
909.035,0.161201773
909.336,0.119797331
909.637,0.140363187
909.938,0.124753466
910.239,0.1437251
910.54,0.144501992
910.84,0.123088466
911.141,0.128394263
911.441,0.12440492
911.742,0.117546414
912.042,0.140092829
912.343,0.150273625
912.643,0.150111873
912.943,0.13276247
913.244,0.118104263
913.544,0.120639741
913.844,0.139671474
914.144,0.132594343
914.444,0.117600956
914.744,0.159521096
915.044,0.141533865
915.343,0.148203466
915.643,0.145666653
915.943,0.12217243
916.243,0.148837052
916.542,0.135230378
916.842,0.124567968
917.141,0.181838247
917.441,0.134712151
917.74,0.136397928
918.039,0.15355992
918.338,0.15427749
918.638,0.168875857
918.937,0.158584143
919.236,0.171221355
919.535,0.151335458
919.834,0.13672504
920.133,0.15229745
920.431,0.171461653
920.73,0.149875817
921.029,0.15796494
921.328,0.139411733
921.626,0.14405749
921.925,0.156824781
922.223,0.118156016
922.522,0.171678247
922.82,0.176665219
923.118,0.133056574
923.417,0.153865538
923.715,0.188356335
924.013,0.170435857
924.311,0.163802331
924.609,0.1811351
924.907,0.17018
925.205,0.156522331
925.503,0.154631355
925.801,0.195085259
926.098,0.163444542
926.396,0.19428008
926.694,0.162090319
926.991,0.208225797
927.289,0.165260757
927.586,0.210068367
927.884,0.207655139
928.181,0.205177231
928.478,0.195896534
928.775,0.185093625
929.073,0.224789363
929.37,0.175369841
929.667,0.238604582
929.964,0.150429482
930.261,0.242835159
930.557,0.224521912
930.854,0.187868845
931.151,0.183345896
931.448,0.170526514
931.744,0.145553785
932.041,0.204758406
932.337,0.268618725
932.634,0.189027331
932.93,0.216314542
933.227,0.232337032
933.523,0.220501275
933.819,0.195164582
934.115,0.208119263
934.412,0.225385797
934.708,0.228386952
935.004,0.219139283
935.3,0.184583068
935.595,0.249720876
935.891,0.223816036
936.187,0.270945378
936.483,0.205307171
936.778,0.259689263
937.074,0.285911793
937.369,0.193486434
937.665,0.21664496
937.96,0.231916833
938.256,0.263227052
938.551,0.267224701
938.846,0.235349821
939.141,0.244527371
939.437,0.242885797
939.732,0.266935936
940.027,0.319145916
940.322,0.261889243
940.617,0.255765737
940.911,0.2445249
941.206,0.204456972
941.501,0.333838446
941.796,0.274231016
942.09,0.343760876
942.385,0.263290837
942.679,0.299143207
942.974,0.302628586
943.268,0.280658486
943.562,0.268500896
943.857,0.252645717
944.151,0.299296016
944.445,0.27215247
944.739,0.354123108
945.033,0.338312351
945.327,0.295716574
945.621,0.32653998
945.915,0.301180159
946.208,0.297975976
946.502,0.245025896
946.796,0.349694343
947.089,0.352010199
947.383,0.354326056
947.676,0.288738606
947.97,0.406680717
948.263,0.300069721
948.557,0.358113765
948.85,0.295103367
949.143,0.375279681
949.436,0.36568488
949.729,0.28684494
950.022,0.376602869
950.315,0.316030876
950.608,0.36125498
950.901,0.347383665
951.194,0.36703506
951.487,0.31991988
951.779,0.391426673
952.072,0.366121853
952.364,0.354033625
952.657,0.420410259
952.949,0.424368924
953.242,0.360778088
953.534,0.426880637
953.826,0.335440458
954.118,0.371467809
954.411,0.424739582
954.703,0.380956335
954.995,0.356090159
955.287,0.411175717
955.579,0.443514143
955.87,0.421213426
956.162,0.418940239
956.454,0.473456375
956.746,0.349211474
957.037,0.397198406
957.329,0.390729084
957.62,0.445788645
957.912,0.397751992
958.203,0.407161673
958.494,0.480008725
958.786,0.440248606
959.077,0.422023307
959.368,0.460692729
959.659,0.435037769
959.95,0.416110518
960.241,0.456209402
960.532,0.510293187
960.823,0.398331474
961.114,0.470551315
961.404,0.522006892
961.695,0.539594582
961.986,0.484273466
962.276,0.527026494
962.567,0.375175598
962.857,0.453195896
963.147,0.435987888
963.438,0.442618108
963.728,0.380467231
964.018,0.449260398
964.308,0.489311853
964.598,0.565653924
964.888,0.55199761
965.178,0.575367928
965.468,0.606702151
965.758,0.554812749
966.048,0.470403825
966.338,0.512779004
966.627,0.508705299
966.917,0.649306972
967.206,0.581489402
967.496,0.524802789
967.785,0.541574801
968.075,0.542017769
968.364,0.617405139
968.653,0.535538008
968.942,0.641871494
969.232,0.672011952
969.521,0.684103586
969.81,0.652537649
970.099,0.71664251
970.388,0.545271693
970.676,0.682221972
970.965,0.701849701
971.254,0.482356653
971.543,0.641971315
971.831,0.674841255
972.12,0.623888944
972.408,0.769549004
972.697,0.635189143
972.985,0.665191554
973.273,0.656081633
973.561,0.739011534
973.85,0.709759124
974.138,0.568653884
974.426,0.749713745
974.714,0.747038247
975.002,0.744185259
975.29,0.663984064
975.577,0.810549801
975.865,0.818269323
976.153,0.693730876
976.441,0.801674104
976.728,0.868373904
977.016,0.800195219
977.303,0.620870319
977.59,0.809211155
977.878,0.738214143
978.165,0.933758167
978.452,0.774027888
978.74,0.924141036
979.027,0.711921116
979.314,0.920524303
979.601,0.93424502
979.888,0.818587251
980.174,0.99986494
980.461,0.85130239
980.748,0.925170717
981.035,0.938818327
981.321,0.79821753
981.608,0.91036255
981.894,0.78570498
982.181,0.938410757
982.467,0.971400398
982.754,0.849334064
983.04,0.789945817
983.326,0.908530677
983.612,0.948684263
983.898,0.90190757
984.184,1.098210558
984.47,1.031178884
984.756,0.852298805
985.042,0.949025498
985.328,1.025964143
985.614,1.00490259
985.899,1.061966135
986.185,1.294654183
986.47,1.112953984
986.756,1.025386454
987.041,0.935438247
987.327,0.859526892
987.612,1.023062948
987.897,1.143263546
988.182,0.989591633
988.468,1.003682869
988.753,1.243020916
989.038,1.11811753
989.323,0.871203187
989.607,0.922141434
989.892,1.201120319
990.177,0.971856574
990.462,1.17355757
990.746,1.097521912
991.031,1.170880478
991.315,1.210114542
991.6,1.130186255
991.884,1.454731076
992.169,1.193294024
992.453,1.019257371
992.737,1.293292829
993.021,1.496860757
993.305,1.25601992
993.59,1.186474303
993.874,1.18750996
994.157,1.406560359
994.441,1.374880876
994.725,1.33749502
995.009,1.002217331
995.293,1.449628287
995.576,1.630658367
995.86,1.462312948
996.143,1.44501992
996.427,1.695800797
996.71,1.171293227
996.993,1.722644223
997.277,1.386019721
997.56,1.384968127
997.843,1.457717131
998.126,1.557126295
998.409,1.549795817
998.692,1.368606972
998.975,1.331149004
999.258,1.552638247
999.541,1.520504582
999.823,1.574978486
1000.106,1.833466135
1000.388,1.703136853
1000.671,1.640779283
1000.954,1.782252988
1001.236,1.740866534
1001.518,1.688239841
1001.801,1.521962151
1002.083,1.965537849
1002.365,1.508618327
1002.647,1.736514741
1002.929,1.698668127
1003.211,1.907426295
1003.493,1.737568924
1003.775,1.770630876
1004.057,1.844181673
1004.338,2.09564243
1004.62,1.884937052
1004.902,1.932992032
1005.183,1.926087649
1005.465,2.065958566
1005.746,2.594635458
1006.028,2.284598606
1006.309,2.080952191
1006.59,2.036916335
1006.871,1.775893227
1007.153,2.130084661
1007.434,2.136296414
1007.715,2.40059761
1007.996,1.998336653
1008.277,1.948111554
1008.557,2.167278088
1008.838,2.175188845
1009.119,2.158994223
1009.4,2.458781673
1009.68,2.126562948
1009.961,2.162266135
1010.241,2.59059502
1010.522,2.382659761
1010.802,2.303323506
1011.082,2.443235857
1011.362,2.695196813
1011.643,2.871662151
1011.923,2.623686056
1012.203,2.313743625
1012.483,2.922315538
1012.763,2.451633466
1013.042,2.793408765
1013.322,2.43883506
1013.602,2.632343825
1013.882,2.678809562
1014.161,2.917075299
1014.441,2.61314741
1014.72,3.126406375
1015,2.290988446
1015.279,3.045175697
1015.558,2.909298406
1015.838,3.149584064
1016.117,3.141028685
1016.396,2.400562351
1016.675,3.888123307
1016.954,3.185364741
1017.233,2.911076295
1017.512,3.078156175
1017.791,3.32444741
1018.07,2.669859562
1018.348,2.808768127
1018.627,3.130149801
1018.905,3.119996414
1019.184,3.424697211
1019.462,2.868656574
1019.741,2.821329084
1020.019,3.627366534
1020.297,3.444334661
1020.576,3.274837052
1020.854,3.532421514
1021.132,3.705370518
1021.41,3.705370518
1021.688,3.705370518
